%time,field.x,field.y,field.z
16266000000,-2.0000208568052034,-0.49999055882140475,-0.0010013929435414605
16298000000,-2.0000208600220644,-0.49999053988844927,-0.001001392943570066
16333000000,-2.0000208633364203,-0.499990520381724,-0.0010013929435995113
16365000000,-2.0000208665533092,-0.49999050144868323,-0.00100139294362811
16399000000,-2.0000208697702124,-0.4999904825156006,-0.0010013929436567016
16432000000,-2.0000208730846114,-0.4999904630087444,-0.0010013929436861468
16464000000,-2.000020876301542,-0.4999904440755766,-0.0010013929437147455
16499000000,-2.0000208795184853,-0.49999042514236697,-0.0010013929437433476
16533000000,-2.0000208828329264,-0.49999040563537983,-0.0010013929437727928
16566000000,-2.000020886049897,-0.49999038670208507,-0.001001392943801388
16599000000,-2.000020889266881,-0.4999903677687483,-0.0010013929438299832
16633000000,-2.000020892581363,-0.4999903482616303,-0.0010013929438594492
16665000000,-2.0000208957983747,-0.4999903293282084,-0.0010013929438880374
16699000000,-2.000020899015399,-0.4999903103947445,-0.0010013929439166326
16733000000,-2.000020902329925,-0.49999029088749564,-0.0010013929439460882
16766000000,-2.0000209055469784,-0.49999027195394663,-0.0010013929439746903
16798000000,-2.0000209087640455,-0.49999025302035577,-0.0010013929440032786
16833000000,-2.000020912078613,-0.4999902335129759,-0.001001392944032748
16866000000,-2.000020915295707,-0.4999902145792999,-0.0010013929440613467
16904000000,-2.000020918512814,-0.4999901956455817,-0.001001392944089928
16944000000,-2.0000209218274234,-0.49999017613807073,-0.001001392944119394
16980000000,-2.0000209250445575,-0.49999015720426754,-0.001001392944148003
17018000000,-2.000020928261705,-0.4999901382704225,-0.0010013929441765983
17053000000,-2.000020931576356,-0.49999011876278066,-0.0010013929442060608
17094000000,-2.000020934793531,-0.4999900998288504,-0.001001392944234663
17129000000,-2.000020938010721,-0.49999008089487823,-0.0010013929442632581
17160000000,-2.000020941325415,-0.4999900613871056,-0.0010013929442927241
17187000000,-2.000020944542632,-0.4999900424530483,-0.0010013929443213124
17221000000,-2.0000209477598623,-0.499990023518949,-0.001001392944349925
17265000000,-2.0000209510745983,-0.4999900040110454,-0.001001392944379377
17303000000,-2.0000209542918554,-0.4999899850768611,-0.0010013929444079826
17304000000,-2.000020957509126,-0.4999899661426348,-0.0010013929444365778
17333000000,-2.0000209608239037,-0.4999899466346001,-0.0010013929444660438
17366000000,-2.0000209640412017,-0.49998992770028855,-0.0010013929444946564
17398000000,-2.0000209672585125,-0.49998990876593513,-0.001001392944523255
17432000000,-2.000020970573333,-0.49998988925776944,-0.001001392944552721
17468000000,-2.000020973790673,-0.49998987032333086,-0.0010013929445813266
17499000000,-2.000020977008026,-0.4999898513888504,-0.0010013929446099253
17533000000,-2.000020980322889,-0.4999898318805537,-0.0010013929446393809
17568000000,-2.0000209835402694,-0.49998981294598815,-0.00100139294466799
17600000000,-2.0000209867576633,-0.4999897940113805,-0.0010013929446965886
17645000000,-2.0000209900725676,-0.49998977450295295,-0.0010013929447260615
17671000000,-2.0000209932899886,-0.4999897555682601,-0.0010013929447546671
17699000000,-2.000020996507423,-0.49998973663352536,-0.0010013929447832727
17733000000,-2.000020999822369,-0.499989717124967,-0.0010013929448127491
17770000000,-2.0000210030398304,-0.49998969819014705,-0.0010013929448413478
17801000000,-2.000021006257307,-0.49998967925528526,-0.00100139294486995
17833000000,-2.000021009572296,-0.49998965974659587,-0.0010013929448994263
17867000000,-2.0000210127897997,-0.4999896408116489,-0.0010013929449280354
17898000000,-2.0000210160073166,-0.4999896218766601,-0.0010013929449566236
17933000000,-2.000021019322348,-0.4999896023678399,-0.001001392944986093
17966000000,-2.000021022539892,-0.4999895834327658,-0.0010013929450147022
17999000000,-2.000021025757449,-0.49998956449764975,-0.0010013929450433147
18033000000,-2.0000210290725224,-0.49998954498869846,-0.0010013929450727772
18066000000,-2.000021032290107,-0.49998952605349717,-0.0010013929451014071
18106000000,-2.0000210355077046,-0.49998950711825424,-0.0010013929451299988
18148000000,-2.00002103882282,-0.499989487609172,-0.0010013929451594683
18167000000,-2.000021042040446,-0.4999894686738439,-0.0010013929451880808
18209000000,-2.000021045258086,-0.4999894497384737,-0.001001392945216676
18241000000,-2.000021048573244,-0.4999894302292605,-0.001001392945246156
18266000000,-2.000021051790911,-0.4999894112938051,-0.001001392945274758
18300000000,-2.0000210550085913,-0.49998939235830775,-0.0010013929453033775
18333000000,-2.000021058323791,-0.4999893728489636,-0.001001392945332847
18366000000,-2.0000210615414984,-0.4999893539133813,-0.001001392945361449
18398000000,-2.000021064759219,-0.4999893349777568,-0.0010013929453900547
18433000000,-2.0000210680744606,-0.49998931546828174,-0.001001392945419538
18466000000,-2.0000210712922084,-0.49998929653257207,-0.0010013929454481471
18499000000,-2.000021074509971,-0.49998927759682044,-0.0010013929454767527
18533000000,-2.0000210778252554,-0.4999892580872144,-0.0010013929455062291
18566000000,-2.000021081043046,-0.4999892391513778,-0.0010013929455348451
18599000000,-2.0000210842608492,-0.4999892202154992,-0.0010013929455634542
18633000000,-2.000021087576176,-0.49998920070576225,-0.0010013929455929202
18666000000,-2.0000210907940064,-0.49998918176979845,-0.0010013929456215466
18699000000,-2.00002109401185,-0.4999891628337929,-0.0010013929456501348
18733000000,-2.000021097327218,-0.49998914332392497,-0.0010013929456796147
18766000000,-2.000021100545089,-0.4999891243878341,-0.0010013929457082342
18799000000,-2.000021103762973,-0.4999891054517012,-0.0010013929457368537
18833000000,-2.0000211070783833,-0.49998908594170227,-0.001001392945766344
18867000000,-2.0000211102962964,-0.49998906700548434,-0.0010013929457949426
18899000000,-2.0000211135142227,-0.4999890480692245,-0.0010013929458235517
18933000000,-2.000021116829676,-0.49998902855909455,-0.001001392945853035
18966000000,-2.0000211200476294,-0.4999890096227495,-0.0010013929458816476
18999000000,-2.0000211232655962,-0.49998899068636254,-0.0010013929459102497
19036000000,-2.000021126581091,-0.49998897117610175,-0.001001392945939733
19066000000,-2.0000211297990855,-0.4999889522396295,-0.0010013929459683525
19101000000,-2.000021133017093,-0.49998893330311545,-0.001001392945996965
19133000000,-2.00002113633263,-0.4999889137927236,-0.0010013929460264553
19166000000,-2.000021139550664,-0.49998889485612436,-0.001001392946055061
19199000000,-2.0000211427687127,-0.49998887591948316,-0.001001392946083677
19233000000,-2.0000211460842925,-0.4999888564089605,-0.0010013929461131672
19266000000,-2.0000211493023694,-0.499988837472234,-0.0010013929461417832
19299000000,-2.0000211525204596,-0.49998881853546556,-0.0010013929461703992
19332000000,-2.000021155836081,-0.49998879902481197,-0.0010013929461998826
19366000000,-2.000021159054198,-0.49998878008795844,-0.0010013929462284882
19401000000,-2.0000211622723283,-0.4999887611510629,-0.0010013929462571146
19439000000,-2.000021165587992,-0.4999887416402783,-0.001001392946286591
19466000000,-2.0000211688061498,-0.4999887227032976,-0.0010013929463152105
19499000000,-2.0000211720243204,-0.499988703766275,-0.0010013929463438334
19537000000,-2.000021175340026,-0.4999886842553596,-0.0010013929463733202
19566000000,-2.000021178558225,-0.49998866531825187,-0.0010013929464019328
19599000000,-2.000021181776438,-0.4999886463811022,-0.0010013929464305522
19633000000,-2.0000211850921867,-0.4999886268700556,-0.001001392946460039
19666000000,-2.000021188310427,-0.49998860793282074,-0.001001392946488662
19699000000,-2.0000211915286803,-0.49998858899554416,-0.0010013929465172641
19735000000,-2.000021194844471,-0.4999885694843665,-0.001001392946546751
19766000000,-2.000021198062752,-0.4999885505470045,-0.0010013929465753878
19804000000,-2.000021201281046,-0.49998853160960055,-0.0010013929466040072
19834000000,-2.000021204596878,-0.49998851209829204,-0.001001392946633494
19866000000,-2.000021207815199,-0.499988493160803,-0.0010013929466621135
19894000000,-2.0000212110335336,-0.4999884742232721,-0.0010013929466907295
19934000000,-2.000021214349409,-0.49998845471183256,-0.0010013929467202198
19971000000,-2.0000212175677725,-0.49998843577421626,-0.0010013929467488393
20004000000,-2.000021220786149,-0.4999884168365581,-0.0010013929467774692
20040000000,-2.000021224102066,-0.4999883973249878,-0.0010013929468069456
20077000000,-2.00002122732047,-0.4999883783872444,-0.001001392946835572
20120000000,-2.0000212305388874,-0.4999883594494591,-0.001001392946864195
20144000000,-2.000021233854846,-0.49998833993775765,-0.0010013929468936887
20170000000,-2.00002123707329,-0.4999883209998874,-0.0010013929469223116
20204000000,-2.0000212402917477,-0.49998830206197514,-0.0010013929469509311
20236000000,-2.0000212436077485,-0.49998828255014277,-0.0010013929469804214
20273000000,-2.000021246826234,-0.4999882636121452,-0.001001392947009034
20299000000,-2.0000212500447336,-0.49998824467410574,-0.0010013929470376742
20333000000,-2.0000212533607775,-0.49998822516214236,-0.001001392947067161
20366000000,-2.0000212565793043,-0.49998820622401763,-0.001001392947095784
20406000000,-2.000021259797845,-0.499988187285851,-0.001001392947124407
20433000000,-2.0000212631139305,-0.49998816777375676,-0.0010013929471538972
20466000000,-2.0000212663324977,-0.49998814883550496,-0.0010013929471825167
20505000000,-2.0000212695510786,-0.49998812989721125,-0.0010013929472111466
20540000000,-2.0000212728672055,-0.499988110384986,-0.0010013929472406369
20568000000,-2.000021276085813,-0.4999880914466069,-0.0010013929472692702
20600000000,-2.0000212793044345,-0.49998807250818594,-0.0010013929472979
20633000000,-2.000021282620605,-0.49998805299582966,-0.0010013929473273904
20666000000,-2.0000212858392548,-0.49998803405732367,-0.0010013929473560203
20700000000,-2.000021289057918,-0.4999880151187757,-0.0010013929473846397
20736000000,-2.00002129237413,-0.4999879956062884,-0.00100139294741413
20768000000,-2.0000212955928207,-0.4999879766676554,-0.0010013929474427634
20802000000,-2.0000212988115242,-0.4999879577289803,-0.0010013929474713967
20833000000,-2.0000213021277786,-0.49998793821636206,-0.0010013929475008766
20861000000,-2.0000213053465097,-0.49998791927760194,-0.00100139294752951
20899000000,-2.000021308565254,-0.49998790033879975,-0.0010013929475581572
20934000000,-2.00002131188155,-0.49998788082605033,-0.0010013929475876475
20967000000,-2.0000213151003217,-0.499987861887163,-0.001001392947616267
21004000000,-2.0000213183191082,-0.4999878429482336,-0.0010013929476449003
21033000000,-2.000021321635447,-0.49998782343535353,-0.0010013929476743975
21064000000,-2.000021324854261,-0.499987804496339,-0.0010013929477030378
21099000000,-2.000021328073088,-0.49998778555728257,-0.0010013929477316746
21133000000,-2.000021331389469,-0.4999877660442714,-0.001001392947761158
21166000000,-2.0000213346083227,-0.4999877471051298,-0.0010013929477897913
21199000000,-2.00002133782719,-0.49998772816594617,-0.0010013929478184143
21233000000,-2.000021341143613,-0.49998770865280406,-0.0010013929478479254
21266000000,-2.0000213443625077,-0.49998768971353513,-0.0010013929478765587
21299000000,-2.0000213475814155,-0.49998767077422457,-0.001001392947905192
21333000000,-2.0000213508978804,-0.4999876512609513,-0.0010013929479346893
21366000000,-2.0000213541168175,-0.49998763232155546,-0.0010013929479633227
21399000000,-2.0000213573357675,-0.49998761338211767,-0.0010013929479919421
21434000000,-2.0000213606522754,-0.49998759386871344,-0.0010013929480214637
21466000000,-2.0000213638712525,-0.49998757492919055,-0.0010013929480500831
21499000000,-2.000021367090243,-0.49998755598962547,-0.0010013929480787165
21533000000,-2.000021370406792,-0.4999875364760905,-0.0010013929481082241
21566000000,-2.00002137362581,-0.4999875175364404,-0.0010013929481368332
21599000000,-2.000021376844841,-0.49998749859674807,-0.0010013929481655116
21634000000,-2.0000213801614324,-0.499987479083082,-0.0010013929481950123
21666000000,-2.0000213833804903,-0.4999874601433048,-0.0010013929482236353
21700000000,-2.000021386599563,-0.49998744120348554,-0.001001392948252279
21739000000,-2.0000213899161974,-0.4999874216896886,-0.0010013929482817555
21766000000,-2.000021393135298,-0.49998740274978404,-0.0010013929483104027
21799000000,-2.0000213963544113,-0.4999873838098377,-0.0010013929483390256
21833000000,-2.0000213996710876,-0.49998736429590973,-0.0010013929483685333
21867000000,-2.0000214028902286,-0.49998734535587797,-0.0010013929483971805
21899000000,-2.000021406109383,-0.49998732641580446,-0.0010013929484258104
21933000000,-2.000021409426101,-0.49998730690174537,-0.0010013929484553319
21967000000,-2.000021412645282,-0.4999872879615867,-0.0010013929484839548
21996000000,-2.000021415864477,-0.49998726902138596,-0.001001392948512602
22034000000,-2.000021419181237,-0.4999872495071959,-0.0010013929485421132
22066000000,-2.00002142240046,-0.49998723056691,-0.0010013929485707534
22099000000,-2.000021425619697,-0.4999872116265824,-0.0010013929485993833
22135000000,-2.0000214289365,-0.49998719211226145,-0.001001392948628884
22166000000,-2.0000214321557643,-0.4999871731718484,-0.0010013929486575243
22202000000,-2.0000214353750416,-0.4999871542313934,-0.0010013929486861715
22233000000,-2.0000214386918866,-0.49998713471694134,-0.0010013929487156792
22275000000,-2.000021441911191,-0.4999871157764012,-0.0010013929487443195
22304000000,-2.0000214451305087,-0.49998709683581916,-0.0010013929487729459
22337000000,-2.0000214484473955,-0.49998707732123615,-0.0010013929488024605
22365000000,-2.0000214516667407,-0.4999870583805688,-0.0010013929488311112
22399000000,-2.0000214548860993,-0.4999870394398596,-0.001001392948859734
22434000000,-2.000021458203029,-0.4999870199251455,-0.0010013929488892626
22465000000,-2.000021461422416,-0.499987000984351,-0.0010013929489178994
22499000000,-2.0000214646418164,-0.4999869820435146,-0.0010013929489465431
22533000000,-2.0000214679587884,-0.49998696252866964,-0.0010013929489760438
22567000000,-2.000021471178216,-0.49998694358774803,-0.0010013929490046876
22599000000,-2.0000214743976565,-0.4999869246467845,-0.0010013929490333313
22641000000,-2.0000214777146703,-0.49998690513180855,-0.001001392949062839
22679000000,-2.000021480934138,-0.49998688619076,-0.0010013929490914862
22709000000,-2.0000214841536197,-0.4999868672496694,-0.0010013929491201334
22735000000,-2.000021487470675,-0.49998684773456237,-0.001001392949149648
22766000000,-2.0000214906901843,-0.4999868287933865,-0.0010013929491782814
22799000000,-2.000021493909708,-0.4999868098521686,-0.001001392949206932
22833000000,-2.000021497226807,-0.4999867903369306,-0.0010013929492364501
22866000000,-2.0000215004463575,-0.4999867713956277,-0.0010013929492650973
22898000000,-2.0000215036659217,-0.49998675245428265,-0.0010013929492937307
22933000000,-2.000021506983062,-0.49998673293891366,-0.0010013929493232314
22965000000,-2.0000215102026533,-0.49998671399748346,-0.001001392949351882
22999000000,-2.000021513422258,-0.49998669505601145,-0.0010013929493805362
23032000000,-2.00002151673944,-0.49998667554051157,-0.001001392949410044
23069000000,-2.0000215199590716,-0.4999866565989543,-0.001001392949438705
23102000000,-2.0000215231787166,-0.49998663765735524,-0.0010013929494673418
23137000000,-2.000021526495942,-0.49998661814172424,-0.001001392949496853
23172000000,-2.0000215297156156,-0.4999865992000398,-0.0010013929495255106
23210000000,-2.000021532935303,-0.4999865802583134,-0.0010013929495541612
23246000000,-2.00002153625257,-0.4999865607425514,-0.0010013929495836758
23268000000,-2.0000215394722844,-0.49998654180073976,-0.0010013929496123126
23305000000,-2.0000215426920125,-0.4999865228588863,-0.0010013929496409668
23331000000,-2.0000215460093216,-0.4999865033429935,-0.001001392949670478
23366000000,-2.0000215492290763,-0.49998648440105486,-0.0010013929496991286
23399000000,-2.0000215524488447,-0.4999864654590741,-0.0010013929497277758
23433000000,-2.0000215557661956,-0.49998644594305025,-0.0010013929497573112
23468000000,-2.000021558985991,-0.4999864270009845,-0.001001392949785955
23499000000,-2.0000215622058013,-0.4999864080588766,-0.0010013929498145849
23533000000,-2.000021565523195,-0.49998638854272154,-0.0010013929498441203
23566000000,-2.000021568743033,-0.49998636960052856,-0.0010013929498727606
23596000000,-2.000021571962884,-0.49998635065829355,-0.0010013929499014078
23633000000,-2.00002157528032,-0.4999863311420075,-0.0010013929499309362
23668000000,-2.000021578500198,-0.49998631219968737,-0.0010013929499595765
23699000000,-2.0000215817200893,-0.49998629325732513,-0.0010013929499882376
23733000000,-2.000021585037567,-0.4999862737409081,-0.001001392950017766
23768000000,-2.0000215882574857,-0.4999862547984608,-0.0010013929500464133
23799000000,-2.0000215914774175,-0.4999862358559716,-0.001001392950075078
23833000000,-2.000021594794937,-0.49998621633942364,-0.0010013929501045751
23865000000,-2.000021598014898,-0.4999861973968492,-0.0010013929501332501
23899000000,-2.000021601234872,-0.49998617845423277,-0.0010013929501618973
23933000000,-2.0000216045524346,-0.49998615893755377,-0.0010013929501914084
23966000000,-2.0000216077724358,-0.49998613999485225,-0.0010013929502200487
24000000000,-2.0000216109924507,-0.49998612105210855,-0.0010013929502487064
24034000000,-2.0000216143100555,-0.4999861015352985,-0.0010013929502782383
24066000000,-2.000021617530097,-0.4999860825924698,-0.001001392950306896
24099000000,-2.000021620750152,-0.499986063649599,-0.00100139295033555
24136000000,-2.0000216240677986,-0.49998604413265796,-0.0010013929503650855
24166000000,-2.000021627287881,-0.4999860251897021,-0.0010013929503937362
24199000000,-2.000021630507977,-0.49998600624670414,-0.0010013929504223903
24233000000,-2.000021633825667,-0.49998598672963207,-0.0010013929504519119
24266000000,-2.000021637045791,-0.499985967786549,-0.001001392950480559
24299000000,-2.0000216402659285,-0.49998594884342423,-0.0010013929505092133
24334000000,-2.0000216435836604,-0.49998592932622116,-0.0010013929505387383
24368000000,-2.0000216468038254,-0.49998591038301093,-0.0010013929505673959
24404000000,-2.0000216500240033,-0.4999858914397587,-0.0010013929505960605
24434000000,-2.0000216533417774,-0.4999858719224245,-0.001001392950625589
24466000000,-2.000021656561983,-0.49998585297908704,-0.001001392950654257
24498000000,-2.0000216597822016,-0.4999858340357078,-0.0010013929506829077
24532000000,-2.0000216631000165,-0.49998581451824275,-0.0010013929507124326
24568000000,-2.0000216663202637,-0.49998579557477824,-0.0010013929507410903
24602000000,-2.0000216695405246,-0.49998577663127164,-0.0010013929507697514
24633000000,-2.0000216728583826,-0.4999857571136756,-0.0010013929507992833
24666000000,-2.0000216760786707,-0.499985738170084,-0.0010013929508279305
24702000000,-2.000021679298972,-0.49998571922645024,-0.001001392950856595
24741000000,-2.000021682616872,-0.4999856997087232,-0.001001392950886127
24763000000,-2.0000216858372,-0.4999856807650044,-0.0010013929509147743
24799000000,-2.0000216890575424,-0.49998566182124343,-0.0010013929509434492
24836000000,-2.0000216923754843,-0.4999856423033854,-0.0010013929509729777
24867000000,-2.000021695595853,-0.49998562335953944,-0.0010013929510016284
24903000000,-2.000021698816236,-0.49998560441565126,-0.0010013929510302964
24940000000,-2.000021702134221,-0.4999855848976622,-0.001001392951059825
24975000000,-2.000021705354632,-0.49998556595368887,-0.0010013929510884895
25013000000,-2.0000217085750567,-0.49998554700967374,-0.001001392951117147
25042000000,-2.0000217118930834,-0.4999855274915536,-0.0010013929511466652
25074000000,-2.000021715113535,-0.499985508547453,-0.0010013929511753505
25110000000,-2.000021718334,-0.49998548960331074,-0.0010013929512040151
25139000000,-2.000021721652069,-0.4999854700850595,-0.00100139295123354
